# Michel's model for spherical accretion 
# Model parameters: gamma = 1.33333333333 , a_inf = 0.05
# a_max = 0.5773502691896257
# Critical values: r_c = 103.333174578041 , v_c = 0.06956088779868647
#                  a_c = 0.0700713299996919 , rho_c = 7.743688457440803
# Accretion rate: alpha = 5751.651082764081
# Units: length = M, velocity = c, density = rho_inf
# Columns: radius, density, velocity, sound_speed
2.500000e+00 1.121997e+03 2.202553e+01 8.202019e-01 1.557837e-01 -1.963204e+00 -3.926409e-01 8.779717e-01
3.746867e+00 6.251632e+02 1.009862e+01 6.553338e-01 1.422353e-01 -1.014121e+00 -4.728040e-01 6.924451e-01
4.993734e+00 4.140466e+02 5.830017e+00 5.570477e-01 1.333157e-01 -7.542676e-01 -4.521820e-01 5.840088e-01
6.240602e+00 3.013966e+02 3.817583e+00 4.900059e-01 1.267834e-01 -6.198630e-01 -4.212081e-01 5.109709e-01
7.487469e+00 2.328756e+02 2.706675e+00 4.405534e-01 1.216908e-01 -5.344981e-01 -3.917267e-01 4.575775e-01
8.734336e+00 1.874747e+02 2.027034e+00 4.021519e-01 1.175532e-01 -4.742160e-01 -3.656294e-01 4.163981e-01
9.981203e+00 1.555205e+02 1.579989e+00 3.712267e-01 1.140914e-01 -4.287720e-01 -3.428561e-01 3.834151e-01
1.122807e+01 1.319965e+02 1.269659e+00 3.456368e-01 1.111306e-01 -3.929559e-01 -3.229607e-01 3.562433e-01
1.247494e+01 1.140658e+02 1.045069e+00 3.240114e-01 1.085546e-01 -3.638024e-01 -3.054771e-01 3.333666e-01
1.372180e+01 1.000145e+02 8.770440e-01 3.054268e-01 1.062826e-01 -3.394834e-01 -2.900025e-01 3.137691e-01
1.496867e+01 8.875145e+01 7.478905e-01 2.892348e-01 1.042562e-01 -3.188031e-01 -2.762070e-01 2.967417e-01
1.621554e+01 7.955208e+01 6.463576e-01 2.749655e-01 1.024318e-01 -3.009420e-01 -2.638242e-01 2.817726e-01
1.746241e+01 7.191807e+01 5.650082e-01 2.622686e-01 1.007764e-01 -2.853173e-01 -2.526394e-01 2.684816e-01
1.870927e+01 6.549641e+01 4.987628e-01 2.508772e-01 9.926405e-02 -2.715018e-01 -2.424786e-01 2.565802e-01
1.995614e+01 6.003070e+01 4.440535e-01 2.405836e-01 9.787426e-02 -2.591743e-01 -2.331999e-01 2.458443e-01
2.120301e+01 5.533059e+01 3.983130e-01 2.312237e-01 9.659052e-02 -2.480880e-01 -2.246868e-01 2.360977e-01
2.244987e+01 5.125210e+01 3.596551e-01 2.226656e-01 9.539936e-02 -2.380497e-01 -2.168425e-01 2.271988e-01
2.369674e+01 4.768443e+01 3.266677e-01 2.148022e-01 9.428962e-02 -2.289058e-01 -2.095862e-01 2.190331e-01
2.494361e+01 4.454110e+01 2.982762e-01 2.075454e-01 9.325200e-02 -2.205325e-01 -2.028500e-01 2.115065e-01
2.619048e+01 4.175368e+01 2.736511e-01 2.008218e-01 9.227865e-02 -2.128284e-01 -1.965761e-01 2.045409e-01
2.743734e+01 3.926740e+01 2.521430e-01 1.945702e-01 9.136289e-02 -2.057102e-01 -1.907153e-01 1.980709e-01
2.868421e+01 3.703792e+01 2.332381e-01 1.887384e-01 9.049901e-02 -1.991081e-01 -1.852253e-01 1.920413e-01
2.993108e+01 3.502901e+01 2.165249e-01 1.832821e-01 8.968208e-02 -1.929635e-01 -1.800697e-01 1.864052e-01
3.117794e+01 3.321080e+01 2.016709e-01 1.781633e-01 8.890780e-02 -1.872268e-01 -1.752166e-01 1.811221e-01
3.242481e+01 3.155847e+01 1.884048e-01 1.733491e-01 8.817244e-02 -1.818553e-01 -1.706383e-01 1.761575e-01
3.367168e+01 3.005123e+01 1.765037e-01 1.688110e-01 8.747270e-02 -1.768126e-01 -1.663105e-01 1.714812e-01
3.491855e+01 2.867154e+01 1.657825e-01 1.645240e-01 8.680568e-02 -1.720670e-01 -1.622117e-01 1.670667e-01
3.616541e+01 2.740452e+01 1.560871e-01 1.604662e-01 8.616881e-02 -1.675910e-01 -1.583230e-01 1.628911e-01
3.741228e+01 2.623747e+01 1.472878e-01 1.566182e-01 8.555979e-02 -1.633604e-01 -1.546274e-01 1.589340e-01
3.865915e+01 2.515948e+01 1.392750e-01 1.529630e-01 8.497658e-02 -1.593541e-01 -1.511101e-01 1.551773e-01
3.990602e+01 2.416115e+01 1.319555e-01 1.494852e-01 8.441734e-02 -1.555533e-01 -1.477573e-01 1.516052e-01
4.115288e+01 2.323431e+01 1.252498e-01 1.461714e-01 8.388040e-02 -1.519414e-01 -1.445572e-01 1.482033e-01
4.239975e+01 2.237186e+01 1.190895e-01 1.430092e-01 8.336427e-02 -1.485036e-01 -1.414987e-01 1.449588e-01
4.364662e+01 2.156757e+01 1.134155e-01 1.399878e-01 8.286760e-02 -1.452267e-01 -1.385720e-01 1.418603e-01
4.489348e+01 2.081601e+01 1.081768e-01 1.370972e-01 8.238915e-02 -1.420987e-01 -1.357683e-01 1.388974e-01
4.614035e+01 2.011234e+01 1.033287e-01 1.343285e-01 8.192780e-02 -1.391091e-01 -1.330793e-01 1.360608e-01
4.738722e+01 1.945232e+01 9.883240e-02 1.316736e-01 8.148253e-02 -1.362482e-01 -1.304978e-01 1.333420e-01
4.863409e+01 1.883217e+01 9.465378e-02 1.291251e-01 8.105238e-02 -1.335072e-01 -1.280169e-01 1.307332e-01
4.988095e+01 1.824853e+01 9.076278e-02 1.266763e-01 8.063650e-02 -1.308782e-01 -1.256305e-01 1.282275e-01
5.112782e+01 1.769838e+01 8.713289e-02 1.243210e-01 8.023410e-02 -1.283540e-01 -1.233330e-01 1.258185e-01
5.237469e+01 1.717905e+01 8.374062e-02 1.220536e-01 7.984444e-02 -1.259280e-01 -1.211192e-01 1.235002e-01
5.362155e+01 1.668811e+01 8.056508e-02 1.198689e-01 7.946684e-02 -1.235942e-01 -1.189843e-01 1.212673e-01
5.486842e+01 1.622339e+01 7.758768e-02 1.177623e-01 7.910068e-02 -1.213470e-01 -1.169238e-01 1.191149e-01
5.611529e+01 1.578292e+01 7.479179e-02 1.157291e-01 7.874539e-02 -1.191815e-01 -1.149338e-01 1.170384e-01
5.736216e+01 1.536493e+01 7.216252e-02 1.137656e-01 7.840041e-02 -1.170930e-01 -1.130104e-01 1.150335e-01
5.860902e+01 1.496781e+01 6.968650e-02 1.118678e-01 7.806525e-02 -1.150770e-01 -1.111501e-01 1.130965e-01
5.985589e+01 1.459010e+01 6.735168e-02 1.100324e-01 7.773944e-02 -1.131297e-01 -1.093497e-01 1.112237e-01
6.110276e+01 1.423045e+01 6.514720e-02 1.082561e-01 7.742254e-02 -1.112475e-01 -1.076061e-01 1.094117e-01
6.234962e+01 1.388766e+01 6.306324e-02 1.065358e-01 7.711416e-02 -1.094268e-01 -1.059167e-01 1.076574e-01
6.359649e+01 1.356061e+01 6.109089e-02 1.048690e-01 7.681389e-02 -1.076645e-01 -1.042786e-01 1.059580e-01
6.484336e+01 1.324828e+01 5.922207e-02 1.032528e-01 7.652140e-02 -1.059577e-01 -1.026895e-01 1.043108e-01
6.609023e+01 1.294975e+01 5.744943e-02 1.016850e-01 7.623634e-02 -1.043036e-01 -1.011472e-01 1.027132e-01
6.733709e+01 1.266414e+01 5.576627e-02 1.001632e-01 7.595840e-02 -1.026997e-01 -9.964935e-02 1.011630e-01
6.858396e+01 1.239067e+01 5.416646e-02 9.868534e-02 7.568729e-02 -1.011435e-01 -9.819407e-02 9.965790e-02
6.983083e+01 1.212861e+01 5.264440e-02 9.724943e-02 7.542271e-02 -9.963299e-02 -9.677943e-02 9.819585e-02
7.107769e+01 1.187729e+01 5.119498e-02 9.585359e-02 7.516442e-02 -9.816590e-02 -9.540368e-02 9.677494e-02
7.232456e+01 1.163609e+01 4.981348e-02 9.449608e-02 7.491217e-02 -9.674032e-02 -9.406515e-02 9.539336e-02
7.357143e+01 1.140443e+01 4.849558e-02 9.317525e-02 7.466571e-02 -9.535442e-02 -9.276226e-02 9.404941e-02
7.481830e+01 1.118178e+01 4.723730e-02 9.188956e-02 7.442483e-02 -9.400646e-02 -9.149353e-02 9.274148e-02
7.606516e+01 1.096763e+01 4.603498e-02 9.063753e-02 7.418932e-02 -9.269483e-02 -9.025758e-02 9.146809e-02
7.731203e+01 1.076154e+01 4.488521e-02 8.941780e-02 7.395898e-02 -9.141799e-02 -8.905308e-02 9.022779e-02
7.855890e+01 1.056307e+01 4.378488e-02 8.822907e-02 7.373362e-02 -9.017451e-02 -8.787879e-02 8.901925e-02
7.980576e+01 1.037182e+01 4.273109e-02 8.707010e-02 7.351307e-02 -8.896302e-02 -8.673353e-02 8.784121e-02
8.105263e+01 1.018742e+01 4.172116e-02 8.593975e-02 7.329715e-02 -8.778225e-02 -8.561619e-02 8.669246e-02
8.229950e+01 1.000952e+01 4.075259e-02 8.483690e-02 7.308570e-02 -8.663098e-02 -8.452572e-02 8.557187e-02
8.354637e+01 9.837802e+00 3.982308e-02 8.376051e-02 7.287858e-02 -8.550806e-02 -8.346110e-02 8.447838e-02
8.479323e+01 9.671953e+00 3.893047e-02 8.270961e-02 7.267563e-02 -8.441240e-02 -8.242138e-02 8.341095e-02
8.604010e+01 9.511691e+00 3.807276e-02 8.168324e-02 7.247672e-02 -8.334298e-02 -8.140568e-02 8.236864e-02
8.728697e+01 9.356749e+00 3.724809e-02 8.068053e-02 7.228171e-02 -8.229883e-02 -8.041312e-02 8.135051e-02
8.853383e+01 9.206875e+00 3.645472e-02 7.970062e-02 7.209047e-02 -8.127900e-02 -7.944289e-02 8.035570e-02
8.978070e+01 9.061835e+00 3.569102e-02 7.874272e-02 7.190290e-02 -8.028264e-02 -7.849422e-02 7.938339e-02
9.102757e+01 8.921406e+00 3.495547e-02 7.780605e-02 7.171887e-02 -7.930888e-02 -7.756636e-02 7.843278e-02
9.227444e+01 8.785379e+00 3.424665e-02 7.688989e-02 7.153827e-02 -7.835696e-02 -7.665861e-02 7.750313e-02
9.352130e+01 8.653559e+00 3.356323e-02 7.599354e-02 7.136099e-02 -7.742609e-02 -7.577030e-02 7.659372e-02
9.476817e+01 8.525761e+00 3.290397e-02 7.511634e-02 7.118694e-02 -7.651557e-02 -7.490078e-02 7.570387e-02
9.601504e+01 8.401809e+00 3.226769e-02 7.425765e-02 7.101603e-02 -7.562471e-02 -7.404944e-02 7.483293e-02
9.726190e+01 8.281539e+00 3.165329e-02 7.341689e-02 7.084815e-02 -7.475285e-02 -7.321570e-02 7.398028e-02
9.850877e+01 8.164795e+00 3.105974e-02 7.259345e-02 7.068322e-02 -7.389936e-02 -7.239900e-02 7.314533e-02
9.975564e+01 8.051429e+00 3.048607e-02 7.178681e-02 7.052115e-02 -7.306365e-02 -7.159879e-02 7.232751e-02
1.010025e+02 7.941303e+00 2.993136e-02 7.099642e-02 7.036187e-02 -7.224514e-02 -7.081458e-02 7.152628e-02
1.022494e+02 7.834284e+00 2.939476e-02 7.022179e-02 7.020529e-02 -7.144330e-02 -7.004586e-02 7.074113e-02
1.034962e+02 7.730248e+00 2.887544e-02 6.946243e-02 7.005134e-02 -7.065759e-02 -6.929218e-02 6.997155e-02
1.047431e+02 7.629075e+00 2.837265e-02 6.871788e-02 6.989995e-02 -6.988752e-02 -6.855307e-02 6.921708e-02
1.059900e+02 7.530654e+00 2.788566e-02 6.798769e-02 6.975105e-02 -6.913261e-02 -6.782810e-02 6.847725e-02
1.072368e+02 7.434877e+00 2.741379e-02 6.727144e-02 6.960457e-02 -6.839240e-02 -6.711687e-02 6.775163e-02
1.084837e+02 7.341643e+00 2.695639e-02 6.656872e-02 6.946045e-02 -6.766646e-02 -6.641896e-02 6.703981e-02
1.097306e+02 7.250856e+00 2.651285e-02 6.587914e-02 6.931863e-02 -6.695435e-02 -6.573401e-02 6.634138e-02
1.109774e+02 7.162424e+00 2.608259e-02 6.520233e-02 6.917904e-02 -6.625568e-02 -6.506164e-02 6.565595e-02
1.122243e+02 7.076259e+00 2.566507e-02 6.453791e-02 6.904163e-02 -6.557006e-02 -6.440150e-02 6.498315e-02
1.134712e+02 6.992279e+00 2.525975e-02 6.388555e-02 6.890634e-02 -6.489711e-02 -6.375325e-02 6.432264e-02
1.147180e+02 6.910405e+00 2.486616e-02 6.324491e-02 6.877313e-02 -6.423647e-02 -6.311657e-02 6.367406e-02
1.159649e+02 6.830560e+00 2.448382e-02 6.261567e-02 6.864193e-02 -6.358781e-02 -6.249113e-02 6.303709e-02
1.172118e+02 6.752674e+00 2.411229e-02 6.199751e-02 6.851270e-02 -6.295078e-02 -6.187665e-02 6.241140e-02
1.184586e+02 6.676677e+00 2.375115e-02 6.139014e-02 6.838540e-02 -6.232508e-02 -6.127281e-02 6.179671e-02
1.197055e+02 6.602504e+00 2.339999e-02 6.079328e-02 6.825997e-02 -6.171039e-02 -6.067935e-02 6.119270e-02
1.209524e+02 6.530091e+00 2.305843e-02 6.020664e-02 6.813637e-02 -6.110642e-02 -6.009600e-02 6.059910e-02
1.221992e+02 6.459381e+00 2.272612e-02 5.962997e-02 6.801456e-02 -6.051288e-02 -5.952248e-02 6.001564e-02
1.234461e+02 6.390314e+00 2.240270e-02 5.906299e-02 6.789450e-02 -5.992950e-02 -5.895856e-02 5.944205e-02
1.246930e+02 6.322837e+00 2.208785e-02 5.850548e-02 6.777614e-02 -5.935601e-02 -5.840398e-02 5.887807e-02
1.259398e+02 6.256897e+00 2.178125e-02 5.795717e-02 6.765944e-02 -5.879217e-02 -5.785851e-02 5.832347e-02
1.271867e+02 6.192444e+00 2.148260e-02 5.741785e-02 6.754438e-02 -5.823772e-02 -5.732193e-02 5.777801e-02
1.284336e+02 6.129430e+00 2.119162e-02 5.688729e-02 6.743090e-02 -5.769242e-02 -5.679402e-02 5.724146e-02
1.296805e+02 6.067808e+00 2.090803e-02 5.636528e-02 6.731899e-02 -5.715605e-02 -5.627456e-02 5.671359e-02
1.309273e+02 6.007536e+00 2.063158e-02 5.585160e-02 6.720859e-02 -5.662838e-02 -5.576335e-02 5.619420e-02
1.321742e+02 5.948569e+00 2.036202e-02 5.534606e-02 6.709969e-02 -5.610921e-02 -5.526019e-02 5.568308e-02
1.334211e+02 5.890869e+00 2.009910e-02 5.484846e-02 6.699224e-02 -5.559832e-02 -5.476489e-02 5.518003e-02
1.346679e+02 5.834396e+00 1.984260e-02 5.435861e-02 6.688621e-02 -5.509551e-02 -5.427727e-02 5.468486e-02
1.359148e+02 5.779112e+00 1.959231e-02 5.387633e-02 6.678158e-02 -5.460060e-02 -5.379715e-02 5.419738e-02
1.371617e+02 5.724982e+00 1.934801e-02 5.340144e-02 6.667832e-02 -5.411339e-02 -5.332434e-02 5.371742e-02
1.384085e+02 5.671970e+00 1.910950e-02 5.293378e-02 6.657639e-02 -5.363370e-02 -5.285869e-02 5.324479e-02
1.396554e+02 5.620045e+00 1.887660e-02 5.247317e-02 6.647577e-02 -5.316136e-02 -5.240004e-02 5.277932e-02
1.409023e+02 5.569174e+00 1.864912e-02 5.201946e-02 6.637644e-02 -5.269620e-02 -5.194821e-02 5.232087e-02
1.421491e+02 5.519326e+00 1.842689e-02 5.157249e-02 6.627836e-02 -5.223805e-02 -5.150307e-02 5.186926e-02
1.433960e+02 5.470472e+00 1.820974e-02 5.113212e-02 6.618151e-02 -5.178675e-02 -5.106446e-02 5.142434e-02
1.446429e+02 5.422583e+00 1.799751e-02 5.069818e-02 6.608586e-02 -5.134216e-02 -5.063224e-02 5.098596e-02
1.458897e+02 5.375631e+00 1.779003e-02 5.027055e-02 6.599140e-02 -5.090411e-02 -5.020627e-02 5.055399e-02
1.471366e+02 5.329592e+00 1.758717e-02 4.984908e-02 6.589810e-02 -5.047248e-02 -4.978641e-02 5.012827e-02
1.483835e+02 5.284439e+00 1.738879e-02 4.943365e-02 6.580593e-02 -5.004710e-02 -4.937254e-02 4.970868e-02
1.496303e+02 5.240147e+00 1.719473e-02 4.902412e-02 6.571488e-02 -4.962786e-02 -4.896452e-02 4.929507e-02
1.508772e+02 5.196693e+00 1.700488e-02 4.862037e-02 6.562492e-02 -4.921461e-02 -4.856223e-02 4.888733e-02
1.521241e+02 5.154055e+00 1.681910e-02 4.822227e-02 6.553603e-02 -4.880723e-02 -4.816556e-02 4.848533e-02
1.533709e+02 5.112210e+00 1.663728e-02 4.782971e-02 6.544820e-02 -4.840560e-02 -4.777437e-02 4.808895e-02
1.546178e+02 5.071137e+00 1.645930e-02 4.744257e-02 6.536139e-02 -4.800958e-02 -4.738857e-02 4.769807e-02
1.558647e+02 5.030816e+00 1.628503e-02 4.706074e-02 6.527560e-02 -4.761907e-02 -4.700804e-02 4.731257e-02
1.571115e+02 4.991226e+00 1.611439e-02 4.668412e-02 6.519080e-02 -4.723395e-02 -4.663267e-02 4.693235e-02
1.583584e+02 4.952350e+00 1.594725e-02 4.631259e-02 6.510697e-02 -4.685411e-02 -4.626237e-02 4.655730e-02
1.596053e+02 4.914167e+00 1.578353e-02 4.594605e-02 6.502411e-02 -4.647944e-02 -4.589701e-02 4.618731e-02
1.608521e+02 4.876662e+00 1.562311e-02 4.558440e-02 6.494218e-02 -4.610984e-02 -4.553652e-02 4.582228e-02
1.620990e+02 4.839815e+00 1.546592e-02 4.522755e-02 6.486118e-02 -4.574520e-02 -4.518079e-02 4.546212e-02
1.633459e+02 4.803611e+00 1.531186e-02 4.487541e-02 6.478108e-02 -4.538543e-02 -4.482973e-02 4.510672e-02
1.645927e+02 4.768034e+00 1.516084e-02 4.452787e-02 6.470188e-02 -4.503042e-02 -4.448325e-02 4.475600e-02
1.658396e+02 4.733067e+00 1.501277e-02 4.418485e-02 6.462355e-02 -4.468009e-02 -4.414126e-02 4.440986e-02
1.670865e+02 4.698696e+00 1.486759e-02 4.384626e-02 6.454608e-02 -4.433434e-02 -4.380367e-02 4.406821e-02
1.683333e+02 4.664907e+00 1.472521e-02 4.351203e-02 6.446945e-02 -4.399309e-02 -4.347040e-02 4.373096e-02
1.695802e+02 4.631684e+00 1.458555e-02 4.318205e-02 6.439365e-02 -4.365624e-02 -4.314137e-02 4.339804e-02
1.708271e+02 4.599015e+00 1.444854e-02 4.285626e-02 6.431867e-02 -4.332372e-02 -4.281650e-02 4.306936e-02
1.720739e+02 4.566886e+00 1.431411e-02 4.253458e-02 6.424450e-02 -4.299544e-02 -4.249570e-02 4.274484e-02
1.733208e+02 4.535285e+00 1.418220e-02 4.221693e-02 6.417111e-02 -4.267131e-02 -4.217892e-02 4.242440e-02
1.745677e+02 4.504198e+00 1.405273e-02 4.190323e-02 6.409849e-02 -4.235127e-02 -4.186606e-02 4.210797e-02
1.758145e+02 4.473614e+00 1.392565e-02 4.159341e-02 6.402664e-02 -4.203524e-02 -4.155706e-02 4.179547e-02
1.770614e+02 4.443520e+00 1.380089e-02 4.128740e-02 6.395554e-02 -4.172314e-02 -4.125185e-02 4.148683e-02
1.783083e+02 4.413907e+00 1.367839e-02 4.098513e-02 6.388518e-02 -4.141490e-02 -4.095037e-02 4.118198e-02
1.795551e+02 4.384762e+00 1.355810e-02 4.068654e-02 6.381554e-02 -4.111045e-02 -4.065253e-02 4.088085e-02
1.808020e+02 4.356076e+00 1.343996e-02 4.039156e-02 6.374662e-02 -4.080971e-02 -4.035828e-02 4.058337e-02
1.820489e+02 4.327837e+00 1.332392e-02 4.010012e-02 6.367840e-02 -4.051264e-02 -4.006756e-02 4.028949e-02
1.832957e+02 4.300035e+00 1.320992e-02 3.981217e-02 6.361087e-02 -4.021915e-02 -3.978030e-02 3.999912e-02
1.845426e+02 4.272661e+00 1.309791e-02 3.952763e-02 6.354402e-02 -3.992918e-02 -3.949645e-02 3.971223e-02
1.857895e+02 4.245706e+00 1.298785e-02 3.924645e-02 6.347784e-02 -3.964268e-02 -3.921593e-02 3.942873e-02
1.870363e+02 4.219160e+00 1.287969e-02 3.896858e-02 6.341232e-02 -3.935958e-02 -3.893871e-02 3.914858e-02
1.882832e+02 4.193014e+00 1.277338e-02 3.869395e-02 6.334744e-02 -3.907982e-02 -3.866471e-02 3.887171e-02
1.895301e+02 4.167259e+00 1.266888e-02 3.842251e-02 6.328321e-02 -3.880335e-02 -3.839388e-02 3.859807e-02
1.907769e+02 4.141888e+00 1.256614e-02 3.815421e-02 6.321960e-02 -3.853010e-02 -3.812617e-02 3.832761e-02
1.920238e+02 4.116891e+00 1.246512e-02 3.788899e-02 6.315662e-02 -3.826003e-02 -3.786154e-02 3.806026e-02
1.932707e+02 4.092261e+00 1.236579e-02 3.762680e-02 6.309424e-02 -3.799307e-02 -3.759991e-02 3.779598e-02
1.945175e+02 4.067990e+00 1.226810e-02 3.736759e-02 6.303246e-02 -3.772918e-02 -3.734126e-02 3.753472e-02
1.957644e+02 4.044071e+00 1.217201e-02 3.711131e-02 6.297128e-02 -3.746831e-02 -3.708552e-02 3.727642e-02
1.970113e+02 4.020496e+00 1.207750e-02 3.685791e-02 6.291068e-02 -3.721039e-02 -3.683264e-02 3.702104e-02
1.982581e+02 3.997258e+00 1.198451e-02 3.660735e-02 6.285065e-02 -3.695539e-02 -3.658259e-02 3.676852e-02
1.995050e+02 3.974350e+00 1.189302e-02 3.635957e-02 6.279118e-02 -3.670326e-02 -3.633532e-02 3.651883e-02
2.007519e+02 3.951766e+00 1.180300e-02 3.611454e-02 6.273228e-02 -3.645395e-02 -3.609077e-02 3.627191e-02
2.019987e+02 3.929498e+00 1.171441e-02 3.587220e-02 6.267392e-02 -3.620741e-02 -3.584892e-02 3.602772e-02
2.032456e+02 3.907541e+00 1.162721e-02 3.563253e-02 6.261610e-02 -3.596360e-02 -3.560970e-02 3.578621e-02
2.044925e+02 3.885888e+00 1.154138e-02 3.539546e-02 6.255882e-02 -3.572247e-02 -3.537309e-02 3.554735e-02
2.057393e+02 3.864533e+00 1.145689e-02 3.516097e-02 6.250206e-02 -3.548398e-02 -3.513904e-02 3.531109e-02
2.069862e+02 3.843470e+00 1.137371e-02 3.492900e-02 6.244582e-02 -3.524809e-02 -3.490751e-02 3.507739e-02
2.082331e+02 3.822693e+00 1.129181e-02 3.469953e-02 6.239010e-02 -3.501476e-02 -3.467846e-02 3.484620e-02
2.094799e+02 3.802198e+00 1.121115e-02 3.447251e-02 6.233487e-02 -3.478395e-02 -3.445185e-02 3.461750e-02
2.107268e+02 3.781977e+00 1.113173e-02 3.424791e-02 6.228014e-02 -3.455561e-02 -3.422765e-02 3.439124e-02
2.119737e+02 3.762027e+00 1.105350e-02 3.402568e-02 6.222590e-02 -3.432972e-02 -3.400581e-02 3.416738e-02
2.132206e+02 3.742341e+00 1.097645e-02 3.380579e-02 6.217215e-02 -3.410622e-02 -3.378631e-02 3.394589e-02
2.144674e+02 3.722915e+00 1.090054e-02 3.358821e-02 6.211886e-02 -3.388509e-02 -3.356910e-02 3.372672e-02
2.157143e+02 3.703743e+00 1.082577e-02 3.337289e-02 6.206605e-02 -3.366629e-02 -3.335415e-02 3.350985e-02
2.169612e+02 3.684822e+00 1.075209e-02 3.315981e-02 6.201371e-02 -3.344978e-02 -3.314143e-02 3.329524e-02
2.182080e+02 3.666146e+00 1.067949e-02 3.294894e-02 6.196181e-02 -3.323552e-02 -3.293090e-02 3.308286e-02
2.194549e+02 3.647710e+00 1.060794e-02 3.274023e-02 6.191037e-02 -3.302349e-02 -3.272253e-02 3.287267e-02
2.207018e+02 3.629511e+00 1.053743e-02 3.253366e-02 6.185938e-02 -3.281365e-02 -3.251629e-02 3.266464e-02
2.219486e+02 3.611543e+00 1.046794e-02 3.232919e-02 6.180882e-02 -3.260597e-02 -3.231215e-02 3.245873e-02
2.231955e+02 3.593803e+00 1.039944e-02 3.212680e-02 6.175870e-02 -3.240041e-02 -3.211008e-02 3.225492e-02
2.244424e+02 3.576286e+00 1.033191e-02 3.192645e-02 6.170900e-02 -3.219695e-02 -3.191004e-02 3.205317e-02
2.256892e+02 3.558989e+00 1.026533e-02 3.172811e-02 6.165972e-02 -3.199555e-02 -3.171201e-02 3.185346e-02
2.269361e+02 3.541907e+00 1.019969e-02 3.153176e-02 6.161086e-02 -3.179618e-02 -3.151596e-02 3.165576e-02
2.281830e+02 3.525037e+00 1.013496e-02 3.133737e-02 6.156241e-02 -3.159882e-02 -3.132186e-02 3.146003e-02
2.294298e+02 3.508374e+00 1.007114e-02 3.114490e-02 6.151437e-02 -3.140342e-02 -3.112967e-02 3.126625e-02
2.306767e+02 3.491915e+00 1.000819e-02 3.095433e-02 6.146672e-02 -3.120998e-02 -3.093938e-02 3.107439e-02
