# Michel's model for spherical accretion 
# Model parameters: gamma = 1.66666666667 , a_inf = 0.01
# a_max = 0.816496580928
# Critical values: r_c = 76.2515514718 , v_c = 0.0809768091976
#                  a_c = 0.0817852332697 , rho_c = 555.259561068
# Accretion rate: alpha = 261429.18831
# Units: length = M, velocity = c, density = rho_inf
# Columns: radius, density, velocity, sound_speed
5.000000e-01 5.810179e+05 2.427722e+05 1.799801e+00 5.836131e-01 -5.227456e-02 -1.045491e-02 2.337790e-02
5.488722e-01 5.091293e+05 1.948034e+05 1.704447e+00 5.709038e-01 -5.981745e-02 -1.288104e-02 2.775808e-02
5.977444e-01 4.513372e+05 1.593621e+05 1.621145e+00 5.590790e-01 -6.658773e-02 -1.532192e-02 3.194138e-02
6.466165e-01 4.040208e+05 1.325020e+05 1.547593e+00 5.480378e-01 -7.268144e-02 -1.775740e-02 3.592538e-02
6.954887e-01 3.646771e+05 1.117028e+05 1.482059e+00 5.376946e-01 -7.818098e-02 -2.017222e-02 3.971252e-02
7.443609e-01 3.315258e+05 9.529687e+04 1.423212e+00 5.279766e-01 -8.315705e-02 -2.255493e-02 4.330821e-02
7.932331e-01 3.032691e+05 8.214795e+04 1.370012e+00 5.188214e-01 -8.767038e-02 -2.489697e-02 4.671966e-02
8.421053e-01 2.789407e+05 7.146109e+04 1.321628e+00 5.101751e-01 -9.177328e-02 -2.719208e-02 4.995505e-02
8.909774e-01 2.578076e+05 6.266754e+04 1.277394e+00 5.019908e-01 -9.551097e-02 -2.943576e-02 5.302299e-02
9.398496e-01 2.393047e+05 5.535221e+04 1.236762e+00 4.942275e-01 -9.892262e-02 -3.162488e-02 5.593224e-02
9.887218e-01 2.229897e+05 4.920671e+04 1.199281e+00 4.868492e-01 -1.020423e-01 -3.375739e-02 5.869142e-02
1.037594e+00 2.085123e+05 4.399828e+04 1.164575e+00 4.798241e-01 -1.048998e-01 -3.583212e-02 6.130891e-02
1.086466e+00 1.955914e+05 3.954874e+04 1.132327e+00 4.731242e-01 -1.075212e-01 -3.784851e-02 6.379276e-02
1.135338e+00 1.839994e+05 3.571990e+04 1.102268e+00 4.667243e-01 -1.099293e-01 -3.980654e-02 6.615063e-02
1.184211e+00 1.735498e+05 3.240334e+04 1.074168e+00 4.606020e-01 -1.121444e-01 -4.170660e-02 6.838979e-02
1.233083e+00 1.640888e+05 2.951309e+04 1.047830e+00 4.547372e-01 -1.141844e-01 -4.354938e-02 7.051707e-02
1.281955e+00 1.554885e+05 2.698029e+04 1.023082e+00 4.491118e-01 -1.160649e-01 -4.533579e-02 7.253893e-02
1.330827e+00 1.476414e+05 2.474933e+04 9.997758e-01 4.437096e-01 -1.178003e-01 -4.706694e-02 7.446140e-02
1.379699e+00 1.404571e+05 2.277487e+04 9.777808e-01 4.385156e-01 -1.194030e-01 -4.874406e-02 7.629015e-02
1.428571e+00 1.338586e+05 2.101971e+04 9.569824e-01 4.335165e-01 -1.208843e-01 -5.036846e-02 7.803049e-02
1.477444e+00 1.277801e+05 1.945308e+04 9.372795e-01 4.287000e-01 -1.222543e-01 -5.194155e-02 7.968737e-02
1.526316e+00 1.221651e+05 1.804936e+04 9.185822e-01 4.240550e-01 -1.235220e-01 -5.346475e-02 8.126545e-02
1.575188e+00 1.169650e+05 1.678711e+04 9.008107e-01 4.195712e-01 -1.246957e-01 -5.493952e-02 8.276907e-02
1.624060e+00 1.121373e+05 1.564827e+04 8.838935e-01 4.152393e-01 -1.257826e-01 -5.636731e-02 8.420230e-02
1.672932e+00 1.076451e+05 1.461752e+04 8.677666e-01 4.110506e-01 -1.267895e-01 -5.774959e-02 8.556894e-02
1.721805e+00 1.034563e+05 1.368185e+04 8.523725e-01 4.069972e-01 -1.277225e-01 -5.908779e-02 8.687255e-02
1.770677e+00 9.954243e+04 1.283010e+04 8.376591e-01 4.030717e-01 -1.285870e-01 -6.038333e-02 8.811647e-02
1.819549e+00 9.587848e+04 1.205272e+04 8.235794e-01 3.992674e-01 -1.293881e-01 -6.163762e-02 8.930382e-02
1.868421e+00 9.244232e+04 1.134143e+04 8.100908e-01 3.955781e-01 -1.301302e-01 -6.285202e-02 9.043754e-02
1.917293e+00 8.921430e+04 1.068908e+04 7.971546e-01 3.919978e-01 -1.308177e-01 -6.402785e-02 9.152036e-02
1.966165e+00 8.617689e+04 1.008946e+04 7.847352e-01 3.885211e-01 -1.314543e-01 -6.516642e-02 9.255487e-02
2.015038e+00 8.331446e+04 9.537115e+03 7.728005e-01 3.851431e-01 -1.320434e-01 -6.626898e-02 9.354348e-02
2.063910e+00 8.061298e+04 9.027304e+03 7.613207e-01 3.818590e-01 -1.325884e-01 -6.733676e-02 9.448848e-02
2.112782e+00 7.805987e+04 8.555842e+03 7.502688e-01 3.786644e-01 -1.330922e-01 -6.837092e-02 9.539200e-02
2.161654e+00 7.564377e+04 8.119046e+03 7.396197e-01 3.755553e-01 -1.335574e-01 -6.937263e-02 9.625605e-02
2.210526e+00 7.335444e+04 7.713659e+03 7.293505e-01 3.725277e-01 -1.339866e-01 -7.034298e-02 9.708254e-02
2.259398e+00 7.118262e+04 7.336794e+03 7.194398e-01 3.695782e-01 -1.343822e-01 -7.128304e-02 9.787323e-02
2.308271e+00 6.911988e+04 6.985884e+03 7.098680e-01 3.667033e-01 -1.347461e-01 -7.219383e-02 9.862982e-02
2.357143e+00 6.715860e+04 6.658643e+03 7.006170e-01 3.638997e-01 -1.350805e-01 -7.307636e-02 9.935389e-02
2.406015e+00 6.529179e+04 6.353027e+03 6.916698e-01 3.611647e-01 -1.353872e-01 -7.393157e-02 1.000469e-01
2.454887e+00 6.351311e+04 6.067206e+03 6.830108e-01 3.584953e-01 -1.356678e-01 -7.476040e-02 1.007104e-01
2.503759e+00 6.181675e+04 5.799538e+03 6.746254e-01 3.558889e-01 -1.359239e-01 -7.556372e-02 1.013455e-01
2.552632e+00 6.019739e+04 5.548545e+03 6.665000e-01 3.533430e-01 -1.361570e-01 -7.634239e-02 1.019537e-01
2.601504e+00 5.865013e+04 5.312897e+03 6.586219e-01 3.508552e-01 -1.363685e-01 -7.709723e-02 1.025360e-01
2.650376e+00 5.717049e+04 5.091389e+03 6.509793e-01 3.484233e-01 -1.365596e-01 -7.782905e-02 1.030937e-01
2.699248e+00 5.575433e+04 4.882933e+03 6.435612e-01 3.460451e-01 -1.367315e-01 -7.853860e-02 1.036277e-01
2.748120e+00 5.439785e+04 4.686544e+03 6.363570e-01 3.437188e-01 -1.368854e-01 -7.922661e-02 1.041392e-01
2.796992e+00 5.309753e+04 4.501323e+03 6.293572e-01 3.414424e-01 -1.370222e-01 -7.989380e-02 1.046290e-01
2.845865e+00 5.185010e+04 4.326457e+03 6.225525e-01 3.392140e-01 -1.371429e-01 -8.054084e-02 1.050981e-01
2.894737e+00 5.065256e+04 4.161201e+03 6.159345e-01 3.370320e-01 -1.372484e-01 -8.116840e-02 1.055473e-01
2.943609e+00 4.950211e+04 4.004877e+03 6.094950e-01 3.348947e-01 -1.373396e-01 -8.177709e-02 1.059775e-01
2.992481e+00 4.839615e+04 3.856865e+03 6.032264e-01 3.328007e-01 -1.374172e-01 -8.236753e-02 1.063894e-01
3.041353e+00 4.733228e+04 3.716597e+03 5.971217e-01 3.307484e-01 -1.374820e-01 -8.294030e-02 1.067839e-01
3.090226e+00 4.630825e+04 3.583552e+03 5.911740e-01 3.287364e-01 -1.375347e-01 -8.349597e-02 1.071615e-01
3.139098e+00 4.532197e+04 3.457252e+03 5.853769e-01 3.267634e-01 -1.375760e-01 -8.403508e-02 1.075231e-01
3.187970e+00 4.437149e+04 3.337257e+03 5.797245e-01 3.248281e-01 -1.376064e-01 -8.455815e-02 1.078691e-01
3.236842e+00 4.345497e+04 3.223163e+03 5.742111e-01 3.229294e-01 -1.376266e-01 -8.506569e-02 1.082003e-01
3.285714e+00 4.257073e+04 3.114595e+03 5.688312e-01 3.210660e-01 -1.376371e-01 -8.555817e-02 1.085172e-01
3.334586e+00 4.171716e+04 3.011210e+03 5.635797e-01 3.192368e-01 -1.376383e-01 -8.603607e-02 1.088203e-01
3.383459e+00 4.089277e+04 2.912688e+03 5.584519e-01 3.174408e-01 -1.376308e-01 -8.649983e-02 1.091102e-01
3.432331e+00 4.009617e+04 2.818737e+03 5.534430e-01 3.156770e-01 -1.376151e-01 -8.694990e-02 1.093875e-01
3.481203e+00 3.932603e+04 2.729082e+03 5.485488e-01 3.139444e-01 -1.375916e-01 -8.738668e-02 1.096525e-01
3.530075e+00 3.858112e+04 2.643470e+03 5.437651e-01 3.122421e-01 -1.375606e-01 -8.781058e-02 1.099057e-01
3.578947e+00 3.786028e+04 2.561668e+03 5.390879e-01 3.105691e-01 -1.375225e-01 -8.822200e-02 1.101477e-01
3.627820e+00 3.716242e+04 2.483456e+03 5.345135e-01 3.089246e-01 -1.374778e-01 -8.862130e-02 1.103787e-01
3.676692e+00 3.648651e+04 2.408631e+03 5.300384e-01 3.073079e-01 -1.374267e-01 -8.900884e-02 1.105993e-01
3.725564e+00 3.583158e+04 2.337005e+03 5.256590e-01 3.057181e-01 -1.373697e-01 -8.938499e-02 1.108097e-01
3.774436e+00 3.519671e+04 2.268401e+03 5.213722e-01 3.041544e-01 -1.373069e-01 -8.975006e-02 1.110104e-01
3.823308e+00 3.458103e+04 2.202654e+03 5.171749e-01 3.026162e-01 -1.372387e-01 -9.010440e-02 1.112016e-01
3.872180e+00 3.398375e+04 2.139613e+03 5.130641e-01 3.011027e-01 -1.371653e-01 -9.044831e-02 1.113839e-01
3.921053e+00 3.340407e+04 2.079132e+03 5.090370e-01 2.996133e-01 -1.370870e-01 -9.078209e-02 1.115574e-01
3.969925e+00 3.284127e+04 2.021078e+03 5.050909e-01 2.981473e-01 -1.370042e-01 -9.110604e-02 1.117225e-01
4.018797e+00 3.229467e+04 1.965325e+03 5.012232e-01 2.967041e-01 -1.369169e-01 -9.142045e-02 1.118794e-01
4.067669e+00 3.176359e+04 1.911756e+03 4.974314e-01 2.952831e-01 -1.368254e-01 -9.172558e-02 1.120285e-01
4.116541e+00 3.124744e+04 1.860260e+03 4.937132e-01 2.938838e-01 -1.367300e-01 -9.202170e-02 1.121701e-01
4.165414e+00 3.074560e+04 1.810734e+03 4.900663e-01 2.925055e-01 -1.366307e-01 -9.230906e-02 1.123043e-01
4.214286e+00 3.025753e+04 1.763081e+03 4.864886e-01 2.911477e-01 -1.365279e-01 -9.258791e-02 1.124315e-01
4.263158e+00 2.978270e+04 1.717209e+03 4.829779e-01 2.898100e-01 -1.364217e-01 -9.285850e-02 1.125518e-01
4.312030e+00 2.932059e+04 1.673032e+03 4.795323e-01 2.884918e-01 -1.363123e-01 -9.312104e-02 1.126656e-01
4.360902e+00 2.887073e+04 1.630469e+03 4.761498e-01 2.871927e-01 -1.361998e-01 -9.337577e-02 1.127731e-01
4.409774e+00 2.843266e+04 1.589445e+03 4.728287e-01 2.859121e-01 -1.360844e-01 -9.362289e-02 1.128743e-01
4.458647e+00 2.800595e+04 1.549887e+03 4.695671e-01 2.846497e-01 -1.359663e-01 -9.386263e-02 1.129697e-01
4.507519e+00 2.759018e+04 1.511729e+03 4.663634e-01 2.834050e-01 -1.358455e-01 -9.409517e-02 1.130593e-01
4.556391e+00 2.718495e+04 1.474905e+03 4.632160e-01 2.821776e-01 -1.357222e-01 -9.432072e-02 1.131434e-01
4.605263e+00 2.678990e+04 1.439356e+03 4.601232e-01 2.809670e-01 -1.355966e-01 -9.453947e-02 1.132220e-01
4.654135e+00 2.640465e+04 1.405024e+03 4.570835e-01 2.797730e-01 -1.354688e-01 -9.475159e-02 1.132955e-01
4.703008e+00 2.602888e+04 1.371857e+03 4.540956e-01 2.785950e-01 -1.353388e-01 -9.495728e-02 1.133640e-01
4.751880e+00 2.566224e+04 1.339802e+03 4.511579e-01 2.774328e-01 -1.352068e-01 -9.515669e-02 1.134276e-01
4.800752e+00 2.530443e+04 1.308812e+03 4.482693e-01 2.762860e-01 -1.350729e-01 -9.534999e-02 1.134866e-01
4.849624e+00 2.495515e+04 1.278841e+03 4.454283e-01 2.751542e-01 -1.349373e-01 -9.553735e-02 1.135410e-01
4.898496e+00 2.461411e+04 1.249846e+03 4.426337e-01 2.740371e-01 -1.347999e-01 -9.571892e-02 1.135909e-01
4.947368e+00 2.428103e+04 1.221785e+03 4.398843e-01 2.729345e-01 -1.346609e-01 -9.589486e-02 1.136366e-01
4.996241e+00 2.395566e+04 1.194620e+03 4.371790e-01 2.718459e-01 -1.345204e-01 -9.606531e-02 1.136782e-01
5.045113e+00 2.363774e+04 1.168314e+03 4.345166e-01 2.707710e-01 -1.343784e-01 -9.623042e-02 1.137158e-01
5.093985e+00 2.332704e+04 1.142832e+03 4.318960e-01 2.697097e-01 -1.342351e-01 -9.639031e-02 1.137496e-01
5.142857e+00 2.302331e+04 1.118140e+03 4.293163e-01 2.686616e-01 -1.340905e-01 -9.654514e-02 1.137795e-01
5.191729e+00 2.272635e+04 1.094206e+03 4.267763e-01 2.676264e-01 -1.339447e-01 -9.669502e-02 1.138059e-01
5.240602e+00 2.243594e+04 1.071002e+03 4.242751e-01 2.666038e-01 -1.337977e-01 -9.684008e-02 1.138287e-01
5.289474e+00 2.215187e+04 1.048497e+03 4.218118e-01 2.655936e-01 -1.336497e-01 -9.698045e-02 1.138482e-01
5.338346e+00 2.187395e+04 1.026664e+03 4.193855e-01 2.645956e-01 -1.335006e-01 -9.711624e-02 1.138643e-01
5.387218e+00 2.160200e+04 1.005479e+03 4.169952e-01 2.636094e-01 -1.333506e-01 -9.724757e-02 1.138772e-01
5.436090e+00 2.133582e+04 9.849149e+02 4.146402e-01 2.626349e-01 -1.331998e-01 -9.737455e-02 1.138871e-01
5.484962e+00 2.107526e+04 9.649493e+02 4.123195e-01 2.616719e-01 -1.330481e-01 -9.749730e-02 1.138939e-01
5.533835e+00 2.082013e+04 9.455595e+02 4.100325e-01 2.607200e-01 -1.328956e-01 -9.761591e-02 1.138979e-01
5.582707e+00 2.057029e+04 9.267240e+02 4.077782e-01 2.597791e-01 -1.327423e-01 -9.773048e-02 1.138990e-01
5.631579e+00 2.032558e+04 9.084224e+02 4.055560e-01 2.588490e-01 -1.325884e-01 -9.784113e-02 1.138973e-01
5.680451e+00 2.008584e+04 8.906349e+02 4.033652e-01 2.579294e-01 -1.324339e-01 -9.794794e-02 1.138931e-01
5.729323e+00 1.985094e+04 8.733430e+02 4.012050e-01 2.570202e-01 -1.322788e-01 -9.805101e-02 1.138862e-01
5.778195e+00 1.962074e+04 8.565288e+02 3.990748e-01 2.561211e-01 -1.321231e-01 -9.815043e-02 1.138769e-01
5.827068e+00 1.939510e+04 8.401753e+02 3.969738e-01 2.552320e-01 -1.319669e-01 -9.824629e-02 1.138651e-01
5.875940e+00 1.917391e+04 8.242660e+02 3.949015e-01 2.543527e-01 -1.318103e-01 -9.833867e-02 1.138510e-01
5.924812e+00 1.895702e+04 8.087855e+02 3.928572e-01 2.534830e-01 -1.316532e-01 -9.842766e-02 1.138346e-01
5.973684e+00 1.874434e+04 7.937187e+02 3.908404e-01 2.526227e-01 -1.314958e-01 -9.851335e-02 1.138160e-01
6.022556e+00 1.853573e+04 7.790513e+02 3.888504e-01 2.517716e-01 -1.313380e-01 -9.859580e-02 1.137953e-01
6.071429e+00 1.833110e+04 7.647697e+02 3.868866e-01 2.509297e-01 -1.311798e-01 -9.867511e-02 1.137725e-01
6.120301e+00 1.813033e+04 7.508607e+02 3.849486e-01 2.500966e-01 -1.310214e-01 -9.875133e-02 1.137477e-01
6.169173e+00 1.793333e+04 7.373118e+02 3.830358e-01 2.492723e-01 -1.308627e-01 -9.882456e-02 1.137209e-01
6.218045e+00 1.773998e+04 7.241108e+02 3.811476e-01 2.484567e-01 -1.307038e-01 -9.889484e-02 1.136923e-01
6.266917e+00 1.755020e+04 7.112463e+02 3.792835e-01 2.476494e-01 -1.305447e-01 -9.896227e-02 1.136618e-01
6.315789e+00 1.736390e+04 6.987071e+02 3.774431e-01 2.468505e-01 -1.303854e-01 -9.902690e-02 1.136295e-01
6.364662e+00 1.718098e+04 6.864825e+02 3.756259e-01 2.460598e-01 -1.302260e-01 -9.908880e-02 1.135955e-01
6.413534e+00 1.700135e+04 6.745625e+02 3.738314e-01 2.452770e-01 -1.300664e-01 -9.914803e-02 1.135598e-01
6.462406e+00 1.682494e+04 6.629371e+02 3.720592e-01 2.445022e-01 -1.299067e-01 -9.920465e-02 1.135225e-01
6.511278e+00 1.665166e+04 6.515969e+02 3.703088e-01 2.437351e-01 -1.297470e-01 -9.925873e-02 1.134836e-01
6.560150e+00 1.648143e+04 6.405328e+02 3.685798e-01 2.429756e-01 -1.295872e-01 -9.931033e-02 1.134431e-01
6.609023e+00 1.631419e+04 6.297363e+02 3.668717e-01 2.422236e-01 -1.294273e-01 -9.935950e-02 1.134012e-01
6.657895e+00 1.614984e+04 6.191988e+02 3.651842e-01 2.414790e-01 -1.292675e-01 -9.940629e-02 1.133578e-01
6.706767e+00 1.598833e+04 6.089124e+02 3.635169e-01 2.407416e-01 -1.291076e-01 -9.945077e-02 1.133131e-01
6.755639e+00 1.582958e+04 5.988693e+02 3.618694e-01 2.400114e-01 -1.289478e-01 -9.949298e-02 1.132669e-01
6.804511e+00 1.567353e+04 5.890620e+02 3.602412e-01 2.392881e-01 -1.287880e-01 -9.953298e-02 1.132195e-01
6.853383e+00 1.552011e+04 5.794834e+02 3.586322e-01 2.385718e-01 -1.286282e-01 -9.957082e-02 1.131708e-01
6.902256e+00 1.536926e+04 5.701267e+02 3.570418e-01 2.378622e-01 -1.284686e-01 -9.960654e-02 1.131208e-01
6.951128e+00 1.522092e+04 5.609850e+02 3.554697e-01 2.371594e-01 -1.283090e-01 -9.964020e-02 1.130696e-01
7.000000e+00 1.507503e+04 5.520521e+02 3.539157e-01 2.364631e-01 -1.281495e-01 -9.967184e-02 1.130172e-01
7.048872e+00 1.493153e+04 5.433217e+02 3.523793e-01 2.357733e-01 -1.279901e-01 -9.970150e-02 1.129638e-01
7.097744e+00 1.479037e+04 5.347880e+02 3.508603e-01 2.350898e-01 -1.278309e-01 -9.972924e-02 1.129092e-01
7.146617e+00 1.465150e+04 5.264451e+02 3.493583e-01 2.344126e-01 -1.276718e-01 -9.975509e-02 1.128535e-01
7.195489e+00 1.451485e+04 5.182876e+02 3.478731e-01 2.337416e-01 -1.275129e-01 -9.977909e-02 1.127968e-01
7.244361e+00 1.438039e+04 5.103101e+02 3.464043e-01 2.330766e-01 -1.273541e-01 -9.980129e-02 1.127391e-01
7.293233e+00 1.424806e+04 5.025075e+02 3.449516e-01 2.324177e-01 -1.271955e-01 -9.982173e-02 1.126804e-01
7.342105e+00 1.411781e+04 4.948747e+02 3.435149e-01 2.317646e-01 -1.270371e-01 -9.984045e-02 1.126208e-01
7.390977e+00 1.398960e+04 4.874072e+02 3.420937e-01 2.311174e-01 -1.268789e-01 -9.985748e-02 1.125603e-01
7.439850e+00 1.386338e+04 4.801001e+02 3.406878e-01 2.304758e-01 -1.267210e-01 -9.987286e-02 1.124988e-01
7.488722e+00 1.373911e+04 4.729490e+02 3.392969e-01 2.298399e-01 -1.265632e-01 -9.988664e-02 1.124365e-01
7.537594e+00 1.361675e+04 4.659497e+02 3.379209e-01 2.292096e-01 -1.264057e-01 -9.989883e-02 1.123734e-01
7.586466e+00 1.349626e+04 4.590979e+02 3.365594e-01 2.285847e-01 -1.262484e-01 -9.990948e-02 1.123094e-01
7.635338e+00 1.337758e+04 4.523896e+02 3.352122e-01 2.279652e-01 -1.260913e-01 -9.991863e-02 1.122447e-01
7.684211e+00 1.326070e+04 4.458209e+02 3.338790e-01 2.273510e-01 -1.259345e-01 -9.992630e-02 1.121792e-01
7.733083e+00 1.314556e+04 4.393881e+02 3.325597e-01 2.267420e-01 -1.257780e-01 -9.993253e-02 1.121129e-01
7.781955e+00 1.303214e+04 4.330875e+02 3.312540e-01 2.261382e-01 -1.256217e-01 -9.993734e-02 1.120460e-01
7.830827e+00 1.292038e+04 4.269157e+02 3.299616e-01 2.255395e-01 -1.254657e-01 -9.994078e-02 1.119783e-01
7.879699e+00 1.281027e+04 4.208691e+02 3.286824e-01 2.249458e-01 -1.253100e-01 -9.994287e-02 1.119100e-01
7.928571e+00 1.270177e+04 4.149445e+02 3.274161e-01 2.243571e-01 -1.251546e-01 -9.994363e-02 1.118410e-01
7.977444e+00 1.259484e+04 4.091387e+02 3.261625e-01 2.237732e-01 -1.249995e-01 -9.994310e-02 1.117714e-01
8.026316e+00 1.248945e+04 4.034487e+02 3.249215e-01 2.231941e-01 -1.248447e-01 -9.994131e-02 1.117011e-01
8.075188e+00 1.238556e+04 3.978714e+02 3.236928e-01 2.226198e-01 -1.246902e-01 -9.993828e-02 1.116303e-01
8.124060e+00 1.228316e+04 3.924039e+02 3.224762e-01 2.220501e-01 -1.245360e-01 -9.993404e-02 1.115589e-01
8.172932e+00 1.218221e+04 3.870435e+02 3.212715e-01 2.214850e-01 -1.243822e-01 -9.992862e-02 1.114869e-01
8.221805e+00 1.208268e+04 3.817874e+02 3.200786e-01 2.209245e-01 -1.242286e-01 -9.992203e-02 1.114144e-01
8.270677e+00 1.198454e+04 3.766330e+02 3.188973e-01 2.203685e-01 -1.240754e-01 -9.991431e-02 1.113414e-01
8.319549e+00 1.188776e+04 3.715778e+02 3.177273e-01 2.198169e-01 -1.239225e-01 -9.990549e-02 1.112679e-01
8.368421e+00 1.179232e+04 3.666192e+02 3.165685e-01 2.192697e-01 -1.237700e-01 -9.989557e-02 1.111939e-01
8.417293e+00 1.169819e+04 3.617549e+02 3.154208e-01 2.187267e-01 -1.236178e-01 -9.988459e-02 1.111194e-01
8.466165e+00 1.160535e+04 3.569826e+02 3.142839e-01 2.181880e-01 -1.234659e-01 -9.987258e-02 1.110444e-01
8.515038e+00 1.151377e+04 3.523000e+02 3.131578e-01 2.176535e-01 -1.233144e-01 -9.985954e-02 1.109690e-01
8.563910e+00 1.142343e+04 3.477049e+02 3.120422e-01 2.171232e-01 -1.231632e-01 -9.984551e-02 1.108932e-01
8.612782e+00 1.133430e+04 3.431952e+02 3.109369e-01 2.165969e-01 -1.230124e-01 -9.983050e-02 1.108169e-01
8.661654e+00 1.124637e+04 3.387688e+02 3.098419e-01 2.160747e-01 -1.228620e-01 -9.981454e-02 1.107403e-01
8.710526e+00 1.115960e+04 3.344238e+02 3.087570e-01 2.155564e-01 -1.227119e-01 -9.979765e-02 1.106633e-01
8.759398e+00 1.107397e+04 3.301582e+02 3.076820e-01 2.150421e-01 -1.225622e-01 -9.977984e-02 1.105859e-01
8.808271e+00 1.098947e+04 3.259702e+02 3.066168e-01 2.145316e-01 -1.224128e-01 -9.976113e-02 1.105081e-01
8.857143e+00 1.090608e+04 3.218578e+02 3.055612e-01 2.140250e-01 -1.222638e-01 -9.974155e-02 1.104300e-01
8.906015e+00 1.082377e+04 3.178194e+02 3.045151e-01 2.135222e-01 -1.221152e-01 -9.972112e-02 1.103516e-01
8.954887e+00 1.074252e+04 3.138532e+02 3.034784e-01 2.130231e-01 -1.219670e-01 -9.969984e-02 1.102728e-01
9.003759e+00 1.066231e+04 3.099575e+02 3.024509e-01 2.125277e-01 -1.218191e-01 -9.967774e-02 1.101937e-01
9.052632e+00 1.058313e+04 3.061307e+02 3.014325e-01 2.120359e-01 -1.216716e-01 -9.965484e-02 1.101143e-01
9.101504e+00 1.050496e+04 3.023713e+02 3.004231e-01 2.115477e-01 -1.215245e-01 -9.963116e-02 1.100347e-01
9.150376e+00 1.042778e+04 2.986776e+02 2.994225e-01 2.110631e-01 -1.213778e-01 -9.960670e-02 1.099547e-01
9.199248e+00 1.035157e+04 2.950483e+02 2.984306e-01 2.105819e-01 -1.212314e-01 -9.958149e-02 1.098745e-01
9.248120e+00 1.027631e+04 2.914818e+02 2.974473e-01 2.101043e-01 -1.210854e-01 -9.955554e-02 1.097940e-01
9.296992e+00 1.020198e+04 2.879768e+02 2.964725e-01 2.096300e-01 -1.209398e-01 -9.952886e-02 1.097133e-01
9.345865e+00 1.012858e+04 2.845318e+02 2.955061e-01 2.091592e-01 -1.207946e-01 -9.950149e-02 1.096323e-01
9.394737e+00 1.005608e+04 2.811456e+02 2.945479e-01 2.086917e-01 -1.206498e-01 -9.947341e-02 1.095511e-01
9.443609e+00 9.984475e+03 2.778168e+02 2.935978e-01 2.082274e-01 -1.205054e-01 -9.944467e-02 1.094697e-01
